Level (in),Level (cm),Level (mm),Q (GPM),Q (LPM),Q (mL/min),Q calc LPM
nan,,nan,nan,,,
0,0.00,0.0,0,0.000,0,0.000
0.01,0.03,0.3,0,0.000,0,0.000
0.02,0.05,0.5,0,0.000,0,0.000
0.03,0.08,0.8,0,0.000,0,0.001
0.04,0.10,1.0,0.001,0.004,4,0.003
0.05,0.13,1.3,0.001,0.004,4,0.005
0.06,0.15,1.5,0.002,0.008,8,0.008
0.07,0.18,1.8,0.003,0.011,11,0.011
0.08,0.20,2.0,0.004,0.015,15,0.015
0.09,0.23,2.3,0.005,0.019,19,0.021
0.1,0.25,2.5,0.007,0.026,26,0.027
0.11,0.28,2.8,0.009,0.034,34,0.034
0.12,0.30,3.0,0.011,0.042,42,0.042
0.13,0.33,3.3,0.014,0.053,53,0.052
0.14,0.36,3.6,0.016,0.061,61,0.062
0.15,0.38,3.8,0.02,0.076,76,0.074
0.16,0.41,4.1,0.023,0.087,87,0.087
0.17,0.43,4.3,0.027,0.102,102,0.101
0.18,0.46,4.6,0.031,0.117,117,0.117
0.19,0.48,4.8,0.035,0.132,132,0.134
0.2,0.51,5.1,0.04,0.151,151,0.152
0.21,0.53,5.3,0.045,0.170,170,0.172
0.22,0.56,5.6,0.051,0.193,193,0.193
0.23,0.58,5.8,0.057,0.216,216,0.216
0.24,0.61,6.1,0.063,0.238,238,0.240
0.25,0.64,6.4,0.07,0.265,265,0.266
0.26,0.66,6.6,0.078,0.295,295,0.293
0.27,0.69,6.9,0.085,0.322,322,0.322
0.28,0.71,7.1,0.093,0.352,352,0.353
0.29,0.74,7.4,0.102,0.386,386,0.386
0.3,0.76,7.6,0.111,0.420,420,0.420
0.31,0.79,7.9,0.12,0.454,454,0.456
0.32,0.81,8.1,0.13,0.492,492,0.493
0.33,0.84,8.4,0.141,0.534,534,0.533
0.34,0.86,8.6,0.152,0.575,575,0.574
0.35,0.89,8.9,0.163,0.617,617,0.617
0.36,0.91,9.1,0.175,0.662,662,0.662
0.37,0.94,9.4,0.187,0.708,708,0.709
0.38,0.97,9.7,0.2,0.757,757,0.758
0.39,0.99,9.9,0.214,0.810,810,0.809
0.4,1.02,10.2,0.228,0.863,863,0.862
0.41,1.04,10.4,0.242,0.916,916,0.916
0.42,1.07,10.7,0.257,0.973,973,0.973
0.43,1.09,10.9,0.273,1.033,1033,1.032
0.44,1.12,11.2,0.289,1.094,1094,1.093
0.45,1.14,11.4,0.306,1.158,1158,1.157
0.46,1.17,11.7,0.323,1.223,1223,1.222
0.47,1.19,11.9,0.341,1.291,1291,1.289
0.48,1.22,12.2,0.359,1.359,1359,1.359
0.49,1.24,12.4,0.378,1.431,1431,1.431
0.5,1.27,12.7,0.398,1.507,1507,1.505
0.51,1.30,13.0,0.418,1.582,1582,1.581
0.52,1.32,13.2,0.439,1.662,1662,1.660
0.53,1.35,13.5,0.46,1.741,1741,1.741
0.54,1.37,13.7,0.482,1.825,1825,1.824
0.55,1.40,14.0,0.505,1.912,1912,1.910
0.56,1.42,14.2,0.528,1.999,1999,1.998
0.57,1.45,14.5,0.552,2.090,2090,2.088
0.58,1.47,14.7,0.576,2.180,2180,2.181
0.59,1.50,15.0,0.601,2.275,2275,2.276
0.6,1.52,15.2,0.627,2.373,2373,2.374
0.61,1.55,15.5,0.654,2.476,2476,2.474
0.62,1.57,15.7,0.681,2.578,2578,2.577
0.63,1.60,16.0,0.709,2.684,2684,2.682
0.64,1.63,16.3,0.737,2.790,2790,2.790
0.65,1.65,16.5,0.766,2.900,2900,2.900
0.66,1.68,16.8,0.796,3.013,3013,3.013
0.67,1.70,17.0,0.827,3.131,3131,3.128
0.68,1.73,17.3,0.858,3.248,3248,3.246
0.69,1.75,17.5,0.89,3.369,3369,3.367
0.7,1.78,17.8,0.922,3.490,3490,3.490
0.71,1.80,18.0,0.955,3.615,3615,3.616
0.72,1.83,18.3,0.989,3.744,3744,3.745
0.73,1.85,18.5,1.024,3.876,3876,3.876
0.74,1.88,18.8,1.06,4.013,4013,4.010
0.75,1.91,19.1,1.096,4.149,4149,4.147
0.76,1.93,19.3,1.133,4.289,4289,4.287
0.77,1.96,19.6,1.17,4.429,4429,4.429
0.78,1.98,19.8,1.209,4.577,4577,4.575
0.79,2.01,20.1,1.248,4.724,4724,4.723
0.8,2.03,20.3,1.288,4.876,4876,4.873
0.81,2.06,20.6,1.328,5.027,5027,5.027
0.82,2.08,20.8,1.37,5.186,5186,5.184
0.83,2.11,21.1,1.412,5.345,5345,5.343
0.84,2.13,21.3,1.455,5.508,5508,5.506
0.85,2.16,21.6,1.498,5.671,5671,5.671
0.86,2.18,21.8,1.543,5.841,5841,5.839
0.87,2.21,22.1,1.588,6.011,6011,6.011
0.88,2.24,22.4,1.634,6.185,6185,6.185
0.89,2.26,22.6,1.681,6.363,6363,6.362
0.9,2.29,22.9,1.729,6.545,6545,6.542
0.91,2.31,23.1,1.777,6.727,6727,6.725
0.92,2.34,23.4,1.826,6.912,6912,6.912
0.93,2.36,23.6,1.876,7.101,7101,7.101
0.94,2.39,23.9,1.927,7.294,7294,7.293
0.95,2.41,24.1,1.979,7.491,7491,7.489
0.96,2.44,24.4,2.031,7.688,7688,7.688
0.97,2.46,24.6,2.084,7.889,7889,7.889
0.98,2.49,24.9,2.139,8.097,8097,8.094
0.99,2.51,25.1,2.194,8.305,8305,8.302
1,2.54,25.4,2.306,8.729,8729,8.514
1.01,2.57,25.7,2.364,8.949,8949,8.728
1.02,2.59,25.9,2.422,9.168,9168,8.946
1.03,2.62,26.2,2.481,9.392,9392,9.167
1.04,2.64,26.4,2.541,9.619,9619,9.391
1.05,2.67,26.7,2.602,9.850,9850,9.618
1.06,2.69,26.9,2.664,10.084,10084,9.849
1.07,2.72,27.2,2.727,10.323,10323,10.083
1.08,2.74,27.4,2.79,10.561,10561,10.320
1.09,2.77,27.7,2.855,10.807,10807,10.560
1.1,2.79,27.9,2.92,11.053,11053,10.804
1.11,2.82,28.2,2.986,11.303,11303,11.052
1.12,2.84,28.4,3.053,11.557,11557,11.302
1.13,2.87,28.7,3.121,11.814,11814,11.556
1.14,2.90,29.0,3.19,12.075,12075,11.813
1.15,2.92,29.2,3.26,12.340,12340,12.074
1.16,2.95,29.5,3.331,12.609,12609,12.338
1.17,2.97,29.7,3.402,12.878,12878,12.606
1.18,3.00,30.0,3.475,13.154,13154,12.877
1.19,3.02,30.2,3.548,13.431,13431,13.152
1.2,3.05,30.5,3.623,13.715,13715,13.430
1.21,3.07,30.7,3.698,13.998,13998,13.711
1.22,3.10,31.0,3.774,14.286,14286,13.996
1.23,3.12,31.2,3.851,14.578,14578,14.285
1.24,3.15,31.5,3.93,14.877,14877,14.577
1.25,3.18,31.8,4.009,15.176,15176,14.873
1.26,3.20,32.0,4.089,15.479,15479,15.172
1.27,3.23,32.3,4.17,15.785,15785,15.475
1.28,3.25,32.5,4.252,16.096,16096,15.781
1.29,3.28,32.8,4.334,16.406,16406,16.091
1.3,3.30,33.0,4.418,16.724,16724,16.405
1.31,3.33,33.3,4.503,17.046,17046,16.722
1.32,3.35,33.5,4.589,17.371,17371,17.043
1.33,3.38,33.8,4.676,17.701,17701,17.368
1.34,3.40,34.0,4.763,18.030,18030,17.696
1.35,3.43,34.3,4.852,18.367,18367,18.028
1.36,3.45,34.5,4.942,18.708,18708,18.364
1.37,3.48,34.8,5.032,19.048,19048,18.703
1.38,3.51,35.1,5.124,19.396,19396,19.046
1.39,3.53,35.3,5.217,19.748,19748,19.393
1.4,3.56,35.6,5.31,20.101,20101,19.744
1.41,3.58,35.8,5.405,20.460,20460,20.098
1.42,3.61,36.1,5.501,20.824,20824,20.457
1.43,3.63,36.3,5.597,21.187,21187,20.819
1.44,3.66,36.6,5.695,21.558,21558,21.185
1.45,3.68,36.8,5.794,21.933,21933,21.554
1.46,3.71,37.1,5.893,22.307,22307,21.928
1.47,3.73,37.3,5.994,22.690,22690,22.305
1.48,3.76,37.6,6.096,23.076,23076,22.687
1.49,3.78,37.8,6.199,23.466,23466,23.072
1.5,3.81,38.1,6.302,23.856,23856,23.461
1.51,3.84,38.4,6.407,24.253,24253,23.854
1.52,3.86,38.6,6.513,24.654,24654,24.251
1.53,3.89,38.9,6.62,25.059,25059,24.651
1.54,3.91,39.1,6.728,25.468,25468,25.056
1.55,3.94,39.4,6.837,25.881,25881,25.465
1.56,3.96,39.6,6.947,26.297,26297,25.878
1.57,3.99,39.9,7.059,26.721,26721,26.294
1.58,4.01,40.1,7.171,27.145,27145,26.715
1.59,4.04,40.4,7.284,27.573,27573,27.140
1.6,4.06,40.6,7.398,28.004,28004,27.569
1.61,4.09,40.9,7.514,28.444,28444,28.001
1.62,4.11,41.1,7.63,28.883,28883,28.438
1.63,4.14,41.4,7.748,29.329,29329,28.879
1.64,4.17,41.7,7.866,29.776,29776,29.324
1.65,4.19,41.9,7.986,30.230,30230,29.773
1.66,4.22,42.2,8.107,30.688,30688,30.226
1.67,4.24,42.4,8.229,31.150,31150,30.684
1.68,4.27,42.7,8.352,31.616,31616,31.145
1.69,4.29,42.9,8.476,32.085,32085,31.611
1.7,4.32,43.2,8.601,32.558,32558,32.080
1.71,4.34,43.4,8.728,33.039,33039,32.554
1.72,4.37,43.7,8.855,33.520,33520,33.032
1.73,4.39,43.9,8.983,34.004,34004,33.514
1.74,4.42,44.2,9.113,34.496,34496,34.001
1.75,4.45,44.5,9.244,34.992,34992,34.491
1.76,4.47,44.7,9.376,35.492,35492,34.986
1.77,4.50,45.0,9.509,35.995,35995,35.485
1.78,4.52,45.2,9.643,36.503,36503,35.989
1.79,4.55,45.5,9.778,37.014,37014,36.496
1.8,4.57,45.7,9.914,37.529,37529,37.008
1.81,4.60,46.0,10.052,38.051,38051,37.524
1.82,4.62,46.2,10.191,38.577,38577,38.045
1.83,4.65,46.5,10.33,39.103,39103,38.569
1.84,4.67,46.7,10.471,39.637,39637,39.098
1.85,4.70,47.0,10.613,40.175,40175,39.632
1.86,4.72,47.2,10.757,40.720,40720,40.170
1.87,4.75,47.5,10.901,41.265,41265,40.712
1.88,4.78,47.8,11.046,41.814,41814,41.258
1.89,4.80,48.0,11.193,42.370,42370,41.809
1.9,4.83,48.3,11.341,42.930,42930,42.364
1.91,4.85,48.5,11.49,43.494,43494,42.924
1.92,4.88,48.8,11.64,44.062,44062,43.488
1.93,4.90,49.0,11.792,44.638,44638,44.056
1.94,4.93,49.3,11.944,45.213,45213,44.629
1.95,4.95,49.5,12.098,45.796,45796,45.207
1.96,4.98,49.8,12.253,46.383,46383,45.788
1.97,5.00,50.0,12.409,46.973,46973,46.375
1.98,5.03,50.3,12.566,47.567,47567,46.965
1.99,5.05,50.5,12.725,48.169,48169,47.561
2,5.08,50.8,12.884,48.771,48771,48.160
2.01,5.11,51.1,13.045,49.381,49381,48.765
2.02,5.13,51.3,13.207,49.994,49994,49.373
2.03,5.16,51.6,13.37,50.611,50611,49.987
2.04,5.18,51.8,13.535,51.236,51236,50.605
2.05,5.21,52.1,13.701,51.864,51864,51.227
2.06,5.23,52.3,13.867,52.492,52492,51.854
2.07,5.26,52.6,14.036,53.132,53132,52.486
2.08,5.28,52.8,14.205,53.772,53772,53.122
2.09,5.31,53.1,14.375,54.415,54415,53.763
2.1,5.33,53.3,14.547,55.066,55066,54.408
2.11,5.36,53.6,14.72,55.721,55721,55.058
2.12,5.38,53.8,14.894,56.380,56380,55.713
2.13,5.41,54.1,15.07,57.046,57046,56.372
2.14,5.44,54.4,15.246,57.712,57712,57.036
2.15,5.46,54.6,15.424,58.386,58386,57.705
2.16,5.49,54.9,15.603,59.064,59064,58.378
2.17,5.51,55.1,15.784,59.749,59749,59.056
2.18,5.54,55.4,15.965,60.434,60434,59.739
2.19,5.56,55.6,16.148,61.127,61127,60.426
2.2,5.59,55.9,16.332,61.823,61823,61.118
2.21,5.61,56.1,16.518,62.527,62527,61.815
2.22,5.64,56.4,16.704,63.232,63232,62.517
2.23,5.66,56.6,16.892,63.943,63943,63.223
2.24,5.69,56.9,17.082,64.662,64662,63.934
2.25,5.72,57.2,17.272,65.382,65382,64.650
2.26,5.74,57.4,17.464,66.108,66108,65.371
2.27,5.77,57.7,17.657,66.839,66839,66.097
2.28,5.79,57.9,17.851,67.573,67573,66.827
2.29,5.82,58.2,18.046,68.312,68312,67.562
2.3,5.84,58.4,18.243,69.057,69057,68.302
2.31,5.87,58.7,18.441,69.807,69807,69.047
2.32,5.89,58.9,18.641,70.564,70564,69.797
2.33,5.92,59.2,18.841,71.321,71321,70.551
2.34,5.94,59.4,19.043,72.086,72086,71.311
2.35,5.97,59.7,19.246,72.854,72854,72.075
2.36,5.99,59.9,19.451,73.630,73630,72.844
2.37,6.02,60.2,19.657,74.410,74410,73.618
2.38,6.05,60.5,19.864,75.193,75193,74.397
2.39,6.07,60.7,20.072,75.981,75981,75.181
2.4,6.10,61.0,20.282,76.776,76776,75.970
2.41,6.12,61.2,20.493,77.574,77574,76.764
2.42,6.15,61.5,20.705,78.377,78377,77.563
2.43,6.17,61.7,20.919,79.187,79187,78.366
2.44,6.20,62.0,21.134,80.001,80001,79.175
2.45,6.22,62.2,21.35,80.819,80819,79.989
2.46,6.25,62.5,21.568,81.644,81644,80.808
2.47,6.27,62.7,21.787,82.473,82473,81.631
2.48,6.30,63.0,22.007,83.306,83306,82.460
2.49,6.32,63.2,22.229,84.146,84146,83.294
2.5,6.35,63.5,22.452,84.990,84990,84.133
2.51,6.38,63.8,22.676,85.838,85838,84.977
2.52,6.40,64.0,22.902,86.694,86694,85.825
2.53,6.43,64.3,23.129,87.553,87553,86.679
2.54,6.45,64.5,23.357,88.416,88416,87.538
2.55,6.48,64.8,23.587,89.287,89287,88.403
2.56,6.50,65.0,23.818,90.161,90161,89.272
2.57,6.53,65.3,24.05,91.039,91039,90.146
2.58,6.55,65.5,24.284,91.925,91925,91.026
2.59,6.58,65.8,24.519,92.815,92815,91.910
2.6,6.60,66.0,24.755,93.708,93708,92.800
2.61,6.63,66.3,24.993,94.609,94609,93.695
2.62,6.65,66.5,25.232,95.514,95514,94.595
2.63,6.68,66.8,25.473,96.426,96426,95.500
2.64,6.71,67.1,25.715,97.342,97342,96.411
2.65,6.73,67.3,25.958,98.262,98262,97.326
2.66,6.76,67.6,26.203,99.189,99189,98.247
2.67,6.78,67.8,26.449,100.120,100120,99.173
2.68,6.81,68.1,26.696,101.055,101055,100.104
2.69,6.83,68.3,26.945,101.998,101998,101.040
2.7,6.86,68.6,27.195,102.944,102944,101.982
2.71,6.88,68.8,27.447,103.898,103898,102.929
2.72,6.91,69.1,27.7,104.856,104856,103.881
2.73,6.93,69.3,27.954,105.817,105817,104.839
2.74,6.96,69.6,28.21,106.786,106786,105.801
2.75,6.99,69.9,28.467,107.759,107759,106.769
2.76,7.01,70.1,28.726,108.740,108740,107.743
2.77,7.04,70.4,28.986,109.724,109724,108.721
2.78,7.06,70.6,29.247,110.712,110712,109.705
2.79,7.09,70.9,29.51,111.708,111708,110.694
2.8,7.11,71.1,29.774,112.707,112707,111.689
2.81,7.14,71.4,30.039,113.710,113710,112.689
2.82,7.16,71.6,30.307,114.724,114724,113.694
2.83,7.19,71.9,30.575,115.739,115739,114.705
2.84,7.21,72.1,30.845,116.761,116761,115.721
2.85,7.24,72.4,31.116,117.787,117787,116.742
2.86,7.26,72.6,31.389,118.820,118820,117.769
2.87,7.29,72.9,31.663,119.857,119857,118.801
2.88,7.32,73.2,31.938,120.898,120898,119.838
2.89,7.34,73.4,32.216,121.951,121951,120.881
2.9,7.37,73.7,32.494,123.003,123003,121.930
2.91,7.39,73.9,32.774,124.063,124063,122.984
2.92,7.42,74.2,33.055,125.127,125127,124.043
2.93,7.44,74.4,33.338,126.198,126198,125.108
2.94,7.47,74.7,33.622,127.273,127273,126.178
2.95,7.49,74.9,33.908,128.356,128356,127.253
2.96,7.52,75.2,34.195,129.442,129442,128.335
2.97,7.54,75.4,34.483,130.532,130532,129.421
2.98,7.57,75.7,34.773,131.630,131630,130.513
2.99,7.59,75.9,35.065,132.735,132735,131.611
3,7.62,76.2,35.358,133.845,133845,132.714
3.01,7.65,76.5,35.652,134.958,134958,133.823
3.02,7.67,76.7,35.948,136.078,136078,134.937
3.03,7.70,77.0,36.245,137.202,137202,136.057
3.04,7.72,77.2,36.544,138.334,138334,137.182
3.05,7.75,77.5,36.845,139.473,139473,138.313
3.06,7.77,77.7,37.146,140.613,140613,139.450
3.07,7.80,78.0,37.45,141.764,141764,140.592
3.08,7.82,78.2,37.754,142.914,142914,141.740
3.09,7.85,78.5,38.06,144.073,144073,142.893
3.1,7.87,78.7,38.368,145.239,145239,144.052
3.11,7.90,79.0,38.677,146.408,146408,145.216
3.12,7.92,79.2,38.988,147.586,147586,146.387
3.13,7.95,79.5,39.3,148.767,148767,147.562
3.14,7.98,79.8,39.614,149.955,149955,148.744
3.15,8.00,80.0,39.929,151.148,151148,149.931
3.16,8.03,80.3,40.246,152.348,152348,151.124
3.17,8.05,80.5,40.564,153.551,153551,152.322
3.18,8.08,80.8,40.883,154.759,154759,153.526
3.19,8.10,81.0,41.205,155.978,155978,154.736
3.2,8.13,81.3,41.527,157.197,157197,155.952
3.21,8.15,81.5,41.851,158.423,158423,157.173
3.22,8.18,81.8,42.177,159.657,159657,158.400
3.23,8.20,82.0,42.504,160.895,160895,159.632
3.24,8.23,82.3,42.833,162.141,162141,160.871
3.25,8.26,82.6,43.163,163.390,163390,162.115
3.26,8.28,82.8,43.495,164.646,164646,163.365
3.27,8.31,83.1,43.828,165.907,165907,164.621
3.28,8.33,83.3,44.163,167.175,167175,165.882
3.29,8.36,83.6,44.499,168.447,168447,167.149
3.3,8.38,83.8,44.837,169.727,169727,168.422
3.31,8.41,84.1,45.177,171.014,171014,169.701
3.32,8.43,84.3,45.518,172.304,172304,170.986
3.33,8.46,84.6,45.86,173.599,173599,172.276
3.34,8.48,84.8,46.204,174.901,174901,173.572
3.35,8.51,85.1,46.55,176.211,176211,174.875
3.36,8.53,85.3,46.897,177.524,177524,176.183
3.37,8.56,85.6,47.246,178.846,178846,177.496
3.38,8.59,85.9,47.596,180.170,180170,178.816
3.39,8.61,86.1,47.948,181.503,181503,180.142
3.4,8.64,86.4,48.301,182.839,182839,181.473
3.41,8.66,86.6,48.656,184.183,184183,182.810
3.42,8.69,86.9,49.012,185.531,185531,184.153
3.43,8.71,87.1,49.37,186.886,186886,185.503
3.44,8.74,87.4,49.73,188.249,188249,186.858
3.45,8.76,87.6,50.091,189.615,189615,188.219
3.46,8.79,87.9,50.454,190.989,190989,189.585
3.47,8.81,88.1,50.818,192.367,192367,190.958
3.48,8.84,88.4,51.184,193.753,193753,192.337
3.49,8.86,88.6,51.551,195.142,195142,193.722
3.5,8.89,88.9,51.92,196.539,196539,195.112
3.51,8.92,89.2,52.291,197.943,197943,196.509
3.52,8.94,89.4,52.663,199.351,199351,197.912
3.53,8.97,89.7,53.037,200.767,200767,199.320
3.54,8.99,89.9,53.412,202.186,202186,200.735
3.55,9.02,90.2,53.789,203.614,203614,202.155
3.56,9.04,90.4,54.168,205.048,205048,203.582
3.57,9.07,90.7,54.548,206.487,206487,205.015
3.58,9.09,90.9,54.93,207.933,207933,206.453
3.59,9.12,91.2,55.313,209.382,209382,207.898
3.6,9.14,91.4,55.698,210.840,210840,209.349
3.61,9.17,91.7,56.084,212.301,212301,210.806
3.62,9.19,91.9,56.472,213.770,213770,212.269
3.63,9.22,92.2,56.862,215.246,215246,213.738
3.64,9.25,92.5,57.254,216.730,216730,215.213
3.65,9.27,92.7,57.646,218.214,218214,216.694
3.66,9.30,93.0,58.041,219.709,219709,218.181
3.67,9.32,93.2,58.437,221.208,221208,219.675
3.68,9.35,93.5,58.835,222.715,222715,221.174
3.69,9.37,93.7,59.234,224.225,224225,222.680
3.7,9.40,94.0,59.635,225.743,225743,224.191
3.71,9.42,94.2,60.038,227.269,227269,225.709
3.72,9.45,94.5,60.442,228.798,228798,227.233
3.73,9.47,94.7,60.848,230.335,230335,228.763
3.74,9.50,95.0,61.256,231.879,231879,230.300
3.75,9.53,95.3,61.665,233.427,233427,231.842
3.76,9.55,95.5,62.076,234.983,234983,233.391
3.77,9.58,95.8,62.488,236.543,236543,234.946
3.78,9.60,96.0,62.903,238.114,238114,236.507
3.79,9.63,96.3,63.318,239.685,239685,238.074
3.8,9.65,96.5,63.736,241.267,241267,239.648
3.81,9.68,96.8,64.155,242.853,242853,241.228
3.82,9.70,97.0,64.575,244.443,244443,242.814
3.83,9.73,97.3,64.998,246.044,246044,244.406
3.84,9.75,97.5,65.422,247.649,247649,246.004
3.85,9.78,97.8,65.847,249.258,249258,247.609
3.86,9.80,98.0,66.275,250.878,250878,249.220
3.87,9.83,98.3,66.704,252.502,252502,250.837
3.88,9.86,98.6,67.134,254.130,254130,252.461
3.89,9.88,98.8,67.566,255.765,255765,254.091
3.9,9.91,99.1,68,257.408,257408,255.727
3.91,9.93,99.3,68.436,259.058,259058,257.369
3.92,9.96,99.6,68.873,260.713,260713,259.018
3.93,9.98,99.8,69.312,262.374,262374,260.673
3.94,10.01,100.1,69.753,264.044,264044,262.334
3.95,10.03,100.3,70.195,265.717,265717,264.002
3.96,10.06,100.6,70.639,267.398,267398,265.676
3.97,10.08,100.8,71.085,269.086,269086,267.357
3.98,10.11,101.1,71.532,270.778,270778,269.043
3.99,10.13,101.3,71.981,272.478,272478,270.737
4,10.16,101.6,72.432,274.185,274185,272.436
4.01,10.19,101.9,72.884,275.896,275896,274.142
4.02,10.21,102.1,73.339,277.618,277618,275.854
4.03,10.24,102.4,73.794,279.341,279341,277.573
4.04,10.26,102.6,74.252,281.074,281074,279.298
4.05,10.29,102.9,74.711,282.812,282812,281.030
4.06,10.31,103.1,75.172,284.557,284557,282.768
4.07,10.34,103.4,75.635,286.310,286310,284.512
4.08,10.36,103.6,76.099,288.066,288066,286.263
4.09,10.39,103.9,76.565,289.830,289830,288.020
4.1,10.41,104.1,77.033,291.602,291602,289.784
4.11,10.44,104.4,77.502,293.377,293377,291.554
4.12,10.46,104.6,77.973,295.160,295160,293.331
4.13,10.49,104.9,78.446,296.950,296950,295.114
4.14,10.52,105.2,78.921,298.748,298748,296.904
4.15,10.54,105.4,79.397,300.550,300550,298.700
4.16,10.57,105.7,79.875,302.360,302360,300.502
4.17,10.59,105.9,80.355,304.177,304177,302.312
4.18,10.62,106.2,80.836,305.998,305998,304.127
4.19,10.64,106.4,81.319,307.826,307826,305.949
4.2,10.67,106.7,81.804,309.662,309662,307.778
4.21,10.69,106.9,82.291,311.505,311505,309.613
4.22,10.72,107.2,82.779,313.353,313353,311.455
4.23,10.74,107.4,83.269,315.207,315207,313.304
4.24,10.77,107.7,83.761,317.070,317070,315.159
4.25,10.80,108.0,84.255,318.940,318940,317.020
4.26,10.82,108.2,84.75,320.814,320814,318.888
4.27,10.85,108.5,85.247,322.695,322695,320.763
4.28,10.87,108.7,85.746,324.584,324584,322.644
4.29,10.90,109.0,86.246,326.477,326477,324.532
4.3,10.92,109.2,86.749,328.381,328381,326.427
4.31,10.95,109.5,87.253,330.289,330289,328.328
4.32,10.97,109.7,87.759,332.204,332204,330.236
4.33,11.00,110.0,88.266,334.123,334123,332.150
4.34,11.02,110.2,88.775,336.050,336050,334.071
4.35,11.05,110.5,89.287,337.988,337988,335.999
4.36,11.07,110.7,89.799,339.926,339926,337.933
4.37,11.10,111.0,90.314,341.876,341876,339.874
4.38,11.13,111.3,90.83,343.829,343829,341.822
4.39,11.15,111.5,91.349,345.794,345794,343.776
4.4,11.18,111.8,91.868,347.758,347758,345.737
4.41,11.20,112.0,92.39,349.734,349734,347.705
4.42,11.23,112.3,92.914,351.718,351718,349.680
4.43,11.25,112.5,93.439,353.705,353705,351.661
4.44,11.28,112.8,93.966,355.700,355700,353.649
4.45,11.30,113.0,94.495,357.702,357702,355.643
4.46,11.33,113.3,95.025,359.709,359709,357.645
4.47,11.35,113.5,95.558,361.726,361726,359.653
4.48,11.38,113.8,96.092,363.748,363748,361.668
4.49,11.40,114.0,96.628,365.777,365777,363.689
4.5,11.43,114.3,97.165,367.810,367810,365.718
4.51,11.46,114.6,97.705,369.854,369854,367.753
4.52,11.48,114.8,98.246,371.902,371902,369.795
4.53,11.51,115.1,98.789,373.957,373957,371.843
4.54,11.53,115.3,99.334,376.020,376020,373.899
4.55,11.56,115.6,99.881,378.091,378091,375.961
4.56,11.58,115.8,100.429,380.165,380165,378.030
4.57,11.61,116.1,100.98,382.251,382251,380.106
4.58,11.63,116.3,101.532,384.340,384340,382.189
4.59,11.66,116.6,102.086,386.438,386438,384.279
4.6,11.68,116.8,102.641,388.538,388538,386.375
4.61,11.71,117.1,103.199,390.651,390651,388.478
4.62,11.73,117.3,103.758,392.767,392767,390.589
4.63,11.76,117.6,104.319,394.890,394890,392.706
4.64,11.79,117.9,104.882,397.022,397022,394.829
4.65,11.81,118.1,105.447,399.160,399160,396.960
4.66,11.84,118.4,106.014,401.307,401307,399.098
4.67,11.86,118.6,106.582,403.457,403457,401.242
4.68,11.89,118.9,107.152,405.614,405614,403.394
4.69,11.91,119.1,107.725,407.783,407783,405.552
4.7,11.94,119.4,108.298,409.953,409953,407.717
4.71,11.96,119.6,108.874,412.133,412133,409.890
